937.87,961.54,939.93,926.15,973.29,965,965.28,965.13,971.24,968.77,947.84,935.74,944.23,973.95,914.05,928.89,969.08,965.15,931.61,941.83,942.11,939.12,883.92,939.32,958.73,1014.3,915.43,938.11,947.36,937.44,946.16,915.89,962.19,951.04,979.37,972.44,1000.6,1013.5,976.05,941.05,979.1,1011,974.61,984.69,951.84,1012.7,986.1,968.45,938.15,958.81,950.32,961.69,984.67,1001.7,984.89,981.09,986.37,1043.3,983.32,981.52,1017.4,981.24,959.18,996.3,965.05,981.05,997.91,994.2,931.92,911.95,952.46,1012.3,979.88,967.21,965.1,995.95,977.26,983.9,921.74,968.65,973.48,949.5,970.43,955.94,994.75,955.73,999.62,963.93,989.39,1026.1,970.67,1006.4,939.19,1010.6,934.79,964.37,960.83,939.27,932.3,981.16,929.27,931.48,993.22,966.04,974.49,942.47,962.08,974.67,973.19,1014.7,952.4,967.25,992.81,1000.7,929.66,969.2,961.08,978.6,990.88,995.12,1013.5,999.19,996.89,1010.6,1000.7,960.88,997.75,949.63,1016.8,933.3,972.25,994.36,994.04,1041.1,994.39,980.65,1014.7,971.83,1007.6,992.27,971.18,962.45,943.24,929.04,959.4,986.43,948.15,1003.6,943.79,1019.5,949.7,968.48,1000.9,991.84,944.06,983.46,936.14,921.35,979.53,914.76,908.55,962.5,999.64,994.45,923.62,960.93,983.07,987.35,1001,1001.7,978.41,918.39,945.99,905.5,964.83,969.55,870.96,947.89,944.43,981.05,1005.8,1105.6,1143.6,1190,1242.4,1269.3,1192.3,1119.1,1056.2,999.64,958.25,929.11,915.71,897.43,929.84,976.24,936.27,959.09,958.32,897.93,982.28,998.62,950.03,973.96,930.07,963.9,998.08,977.79,927.5,924.51,951.33,944.07,947.43,979.78,954.53,992.6,950.93,947.67,969.83,957.66,941.75,910.3,924.09,966.42,964.59,912.3,951,963.23,918.62,924.04,975.85,903.16,959.16,971.45,907.22,945.75,918.62,949.25,938.45,911.73,966.45,963.9,935.54,961.2,916.39,919.13,925.16,948.27,940.9,996.78,948.22,966.05,966.35,960.29,954.79,978.1,918.9,989.88,969.16,920.26,976.75,974.56,989.68,938.49,990.98,954.59,909.41,926.6,969.24,993.82,921.42,947.22,933.58,995.99,928.6,984.29,937.39,971.42,918.89,988.51,896.93,962.06,970.53,940.48,936.84,978.23,941.09,968.29,900.51,917.97,970.88,999.95,934.76,993.97,992.36,964.29,977.4,1033.8,943.99,994,986.19,989.05,979.85,985.03,972.72,937.66,965.4,986.86,986.47,994.09,1035.5,937.65,998.01,981.4,973.05,957.67,975.81,996.01,990.66,938.86,1000.7,982.24,1025.4,953.19,961.95,932.2,978.09,999.88,963.03,963.02,968.63,968.99,999.59,970.4,960.93,990.87,939.89,985.97,962.84,1019.5,950.78,980.59,970.95,941.98,990.89,909.34,919.35,934.26,1003.6,994.6,936.72,961.51,951.41,977.83,1024.5,948.08,1015.7,956.37,949.7,986.24,988.73,977.99,932.31,950.72,950.3,959.19,953.45,982.64,994.29,961.73,984.86,995.97,981.35,972.19,963.43,948.92,974.16,989.99,982.33,993.45,991.16,1006.8,978.24,992.04,1006.1,989.6,1007,950.64,1003.5,1004.5,993.97,986.18,982.18,949.38,1019.4,1009.9,974.82,966.07,990.37,1007,1008.8,998.36,1004.2,1025.9,935.39,984.74,972.64,954.28,990.92,968.86,999,943.15,945.81,979.84,948.81,973.03,956.95,991.42,974.92,954.82,951.03,954.88,1021.8,959.76,958.94,958.06,1004.9,923.69,994.81,945.02,955.17,972.94,925.59,952.64,931.14,888.03,926.81,953.51,980.95,975.85,1009.6,1047.6,1082.3,1105.3,1136.2,1214.8,1240.9,1281.5,1192.2,1169.1,1103.9,1005.5,1001.7,923.82,884.91,977.25,931.02,994.87,967.1,947.4,932.5,1003.4,965.74,942.77,936.63,948.49,986.41,1003.8,958.68,966.68,962.08,909.78,955.51,942.55,949.31,954.23,884.73,938.64,976.91,961.02,946.1,949.48,928,933.57,937.43,950.35,971.7,954.47,948.01,929.11,976.47,960.89,968.15,958.48,973.19,987.81,937.21,966.56,966.98,949.78,999.8,927.53,939.85,956.95,956.66,948.43,941.01,971.61,950.49,933.83,996.82,975.8,987.22,950.33,999.9,974.99,907.8,920.37,962.59,946.1,943.4,974.87,992.55,958.78,951.18,1002.3,947.73,935.74,932.12,930.61,951.04,926.48,903.54,916.88,957.91,975.28,976.07,1004.8,924.9,988.11,957.04,943.31,944.34,978.24,975.24,919.85,991.62,985.63,961.09,942.47,950.76,942.1,970.74,962.28,964.2,973.53,963.57,931.57,963.03,964.92,935.1,997.14,919.83,984.55,968.63,966.89,990.19,964.41,968.33,955.21,1008.1,1003.8,992.16,986.28,991.16,990.36,981.85,988.79,950.27,966.73,983.76,951.86,976.02,968.31,1000,980.81,997.36,985.57,996.23,967.64,971.88,952.3,976.69,1044.9,970.44,963.86,982.46,920.91,990.21,943.81,978.19,971.91,964.32,942.07,970.43,988.11,977.07,997.9,927.29,961.48,928.24,966.87,977.54,944.81,992.07,945.13,974.59,954.31,943.04,943.57,924.72,998.02,900.82,931.75,915.39,930.43,891.2,977.05,962.01,934.23,932.48,930.05,955.04,909.45,972.17,962.75,959.44,984.31,977.64,962.38,972.77,974.67,963.35,1008.8,1008.1,979.81,955.33,953.68,994.28,980.38,964.67,986.3,955.38,992.51,946.2,920.66,974.8,954.45,1023.3,1019.3,970.7,959.83,978.59,979.1,1024.6,983.29,1019.1,1012.9,1041,963.51,959.12,1008.9,947.54,920.61,963.17,971.51,949.93,951.23,925.93,1002.1,961.03,940.31,965.05,975.86,931.79,963.63,946.94,997.27,959.97,927.88,956.22,969.23,1009.5,955.99,970.29,988.02,972.72,938.26,953.97,938.55,969.67,984.51,941.45,960.37,911.58,923.98,908.59,956.76,939.35,980.19,981.47,1010.2,1083.9,1107.5,1144,1204.4,1259,1180.2,1127.5,1022.2,917.74,932.01,965.34,917.71,906.25,919.23,954.1,931.49,969.59,934.11,891.86,933.01,961.8,968.66,971.12,964.02,967.83,988.35,983.36,948.39,931.1,938.01,960.57,975.2,937.81,982.82,922.88,927.37,932.33,927.45,964.75,938.32,987.29,938.85,986.66,881.25,950.05,948.09,986.38,941.54,983.48,984.32,924.49,910.23,959.45,915.62,935.07,926.72,946.52,956.91,957.81,942.39,916.33,920.83,949.31,885.39,909.64,897.86,929.8,950.13,1000.1,938.9,912.31,924.66,950.46,966.55,930.52,940.88,969.65,940.59,937.01,931.72,930.38,965.45,922.71,934.82,909.15,953.09,942.23,944.04,930.33,911.45,928.87,902.9,923.54,988.68,971.81,949.69,938.95,950.66,943.74,955.29,963.14,908.47,935.23,944.32,935.12,923.15,983.8,968.7,933.23,934.68,975.68,947.78,936.04,957.81,945.88,989.24,1029.7,930.48,992.94,982.56,951.94,998.04,954.79,929.94,949.92,989.45,987.26,1005.1,992.27,1007.5,924.88,967.39,965.92,976.55,1004.7,959.09,979.31,925.23,949.12,998.5,931.41,1009.4,958.9,985.19,943.59,992.87,973.96,1005.4,958.33,952.62,951.1,1020.4,964.76,929.77,994.71,967.62,962.1,985.92,996.19,955.07,971.77,961.23,955.55,977.89,985.03,932.75,992.75,967.72,958.1,927.29,963.57,966.26,968.59,952.09,989.15,1006.2,1000.1,962.24,974.39,975.17,950.46,967.71,953.26,968.72,1009.3,963.32,951.73,1005.4,992.83,956.86,952.58,1004.3,968.78,973.63,979.73,957.27,996.22,1026.8,911.8,980.95,1000.6,959.1,979.24,979.26,965.01,1000.7,1015.4,992.58,994.24,971.34,1016,990.74,1005,1025.4,987.57,989.15,997.26,989.42,962.28,1005.1,954.96,981.39,956.79,1028.5,998.13,1003,981.43,1029.7,983.9,1028.8,1033.8,987.86,1003.7,986.17,1034.9,955.14,940.39,983.77,945.76,950.27,975.29,935.55,994.79,979.54,1003.6,956.2,989.83,940.03,973.02,994.09,949.79,964.18,1001.9,942.39,935.24,987.34,962.41,934.48,937.66,972.66,972.12,954.21,966.73,970.11,935.73,940.01,924.86,974.5,899.03,963.35,911.76,939.95,993.94,1020.4,1023.5,1095.2,1100.5,1218.5,1259,1255.5,1270.1,1260.5,1166.8,1102.6,1027.2,963.3,895.49,923.61,894.59,942.42,938.25,955.6,962.44,971.75,951.42,956,981.33,988.42,958.44,973.53,933.75,990.64,938.43,933.81,963.45,946.37,912.34,980.94,970.38,992.19,957.37,966.62,922.21,995.49,1009.3,943.47,931.63,973,919.62,952.84,948.63,972.67,902.78,954.09,956.55,907.72,949.03,968.73,922.11,943.5,957.92,939.94,994.33,974.24,938.53,957.29,978.22,957.21,967.92,967.08,968.48,915.93,933.08,942.18,913.06,912.95,955.94,953.97,971.11,958.14,931.83,948.61,929.09,969.68,913.23,973.49,968.45,972.33,937.53,954.93,947.97,914.23,966.12,962.06,931.42,976,905.87,939.73,940.23,932.16,930.4,959.08,925.16,950.72,938.37,946.79,996.31,935.45,973.14,952.95,955.79,908.43,981.52,960.86,950.15,964.94,964.27,1016.8,944.33,958.96,980.57,1024.4,985.43,1007.8,996.82,994.97,1011.2,1037.3,981.69,973.75,983.68,969.42,923.22,977.1,986.2,970.84,974.58,1008.9,980.06,980.25,967.47,968.07,977.48,983.2,988.72,1021.9,1014.9,952.07,1021.9,952.36,1041.3,981.98,967.03,930.47,966.05,1012.6,960.68,965.73,945.17,946.65,960.53,981,925.44,990.68,965.97,999.11,973.89,963.93,988.57,988.63,1026.6,943.47,955.45,940.41,956.75,960.37,962.96,959.28,956.24,961.07,979.71,998.84,961.88,1013.7,988.82,994.49,940.49,922.3,976.17,977.61,924.49,928.85,976.8,994.91,1004.9,948.04,986.12,984.36,967.2,943.7,941.39,991.51,930.95,964.63,978.51,1006.3,972.02,948.19,990.7,963.01,1027.4,963.3,988.28,1036.1,1013.4,986.58,1003,1053.1,1032,962.79,1002.6,1020.6,957.63,1002.2,995.3,1001.2,973.87,948.33,970.19,1041.9,995.76,979.21,1038.7,1019,966.44,1011.9,1009.8,961.66,990.5,965.73,1002.3,938.45,960.79,990.52,967.01,983.41,1011.4,960.34,943.6,1009.1,956.07,972.96,952.45,927.78,944.32,998.81,956.62,958.25,971.5,995.42,968.81,956.54,939.69,975.57,910.79,928.63,971.41,956.17,909.08,952.43,948.74,900.39,918.21,954.05,904.66,890.31,950.97,960,995.03,1050.3,1084.6,1132.5,1170.2,1212.5,1220.4,1210.9,1211,1080.7,983.27,943.8,943.13,948.9,959.97,982.26,949.4,967.88,942.53,912.53,942.7,986.45,944.14,982.55,973.05,940.07,1002.8,976.84,976.56,931.26,938.82,971.16,981.99,953.34,997.8,951.81,973.95,955.08,982.35,944.82,954.22,917.29,964.56,958.24,968.2,962.45,937.27,972.6,1022.3,939.96,982.31,942.56,934.29,931.93,974.38,959.83,978.84,951.25,924.62,951.04,956.16,973.31,923.74,907.92,965.47,935.59,944.73,968.76,953.46,952.12,980.61,979.65,956.09,942.71,922.16,960.89,1011.8,981.18,963.62,928.55,923.35,938.75,857.45,964.43,985.09,954.76,943.82,984.82,941.31,938.52,976.15,954.14,937.14,970.46,937.98,989.24,940.27,940.15,938.28,959.91,984.63,964.14,974.3,985.38,950.79,976.72,951.89,1008.5,967.51,948.36,964.51,944.68,928.9,980.74,981.82,993.35,954.88,955.87,966.73,953.86,1048.3,989.29,964.67,990.61,1010.7,998.94,1006.9,994.02,946.32,961,1007.5,978.05,989.48,995.87,955.46,982.75,970.13,947.15,993.83,963.9,970.43,948.52,967.93,992.99,1022.3,955.71,991.63,993.08,1005.1,1012.5,951.35,981.53,1010.8,989.63,1010,1008.4,1037.6,913.5,971.7,967.53,939.41,961.97,1012.6,979.48,999.01,1014.9,966.74,964.76,942.07,968.07,957.13,967.52,969.36,955.79,946.38,964.56,974.37,950.61,979.81,966.4,967.48,992.79,1028.7,989.19,984.07,971.12,976.24,987.54,956.18,932.69,980.73,954.45,982.84,953.24,937.66,933.91,978.03,1020.9,978.01,985.26,974.6,976.75,1031.1,951.47,969.03,957.16,990.85,980.38,965.82,994.55,952.86,982.99,984.01,1018.3,994.47,984.83,955.46,953.23,1003.8,968.5,979.97,967.26,996.54,999.7,1040.6,1040.4,1023.5,1027.1,968.76,1029.9,970.46,952.01,1071.2,1003,980.43,997.2,995.73,940.25,978.11,1016.2,1005.9,961.43,981.71,981.25,984.03,940.03,989.38,1017.2,933.18,981.97,1002.6,978.51,983.73,955.12,963.37,937.38,961.96,952.18,951.55,1004.2,963.07,981.75,975.38,940.63,920.75,930.16,973.9,957.47,982.99,955.5,931.94,967.41,987.53,960.64,947.35,938.48,977.7,967.86,931.26,907.34,917.16,938.33,892.69,905.33,918.94,925.51,957.39,999.34,1031.2,1066.4,1175.4,1175,1243.9,1197.4,1142.3,1092.4,989.53,924.94,906.33,927.07,963,977.18,952.2,934.68,957.39,968.78,943.46,991.08,945.89,973.46,973.21,952.42,949.88,972.8,905.91,951.84,952.73,963.14,933.88,918.75,885.04,964.63,977.95,940.89,1009.5,932.98,915.22,944.36,949.64,967.06,957.03,932.91,911.92,933.33,915.91,970.09,954.41,906.67,961.14,924.94,984.76,953.3,957.73,933.32,961.08,948.62,954.4,941.99,966.08,887.02,951.14,971.21,942.23,964.45,937.11,956.32,936.4,977.63,960.75,985.4,951.96,950.52,958.83,986.21,892.25,910.09,985.67,1001.3,946.88,984.85,1008.3,958.74,940.61,942.07,944.6,968.97,945.73,999.93,940.51,929.1,957.61,948.88,954.56,893.65,941.25,901.16,950.63,963.12,972.49,964.82,961.1,968.39,947.58,948.04,977.51,982.18,948.23,916.07,903.62,920.44,937,977.18,948.6,966.87,976.23,932.34,947.74,956.27,951.96,961.02,990.68,959.31,989.36,983.51,982.8,1001.4,1027.5,1010.7,935.4,989.25,947.83,927.73,945.73,918.45,945.72,1007.9,964.09,1041,981.77,996.1,967.35,968.01,957.42,980.02,935.93,949.75,942.27,975.21,1009.9,1024.9,927.11,976.67,953.65,943.96,974.58,960.2,973.28,989.21,943.61,965.18,924.49,958.42,989.72,920.36,976.77,934.2,972.47,953.74,955.04,919.9,939.22,959.17,965.79,959.22,945.97,994.21,956.14,943.6,945.03,963.11,984.23,949.39,984.79,971.66,951.92,942.57,965.43,956.42,939.38,942.14,979.48,976.04,954.21,976.65,949.25,958.11,992.87,949.5,910.93,927.78,970.27,959.61,1033.8,929.62,958.9,964.01,929.65,992.98,985.6,1005.6,981.19,873.25,940.82,972.79,948.62,976.08,965.34,953.31,968.7,982.82,1001.6,952.65,960.71,954.98,995.2,1017.3,1006.4,1015.5,990.23,962.96,1001,1029.2,998.65,1007.2,945.41,995.28,978.15,995.83,1012.9,968.01,1019.6,955.42,980.02,988.67,1011.7,980.92,960.6,1012.4,986.07,925.16,981,926.49,983.77,995.68,956.43,936.29,988.67,944.23,935.54,925.46,920.31,962.89,950.71,977.71,953.58,945.76,908.96,933.61,957.61,948.3,986.88,909.21,947.47,957.86,936.94,956.8,994.53,925.74,946.23,921.52,976.2,926.85,930.55,980.57,961.59,913.1,960.41,909.52,919.65,960.86,984.43,941.92,981.25,1043,1076.2,1106.2,1160.8,1178.4,1148.2,1175.1,1085.1,1029.3,1032.7,933.85,962.74,900.23,964.89,894.16,934,951.27,959.5,940.89,913.94,909.56,922.95,918.52,930.52,921.24,975.05,947.75,947.09,920.03,950.92,950.08,918.6,909.27,889.63,964.82,915.7,944.17,943.08,942.28,926.04,938.34,939.33,979.74,914.1,934.85,971.66,957.53,917.79,963.83,875.45,927.69,980.19,955.46,963.79,941.68,931.49,955.4,997.93,935.29,978.93,928.52,929.25,954.27,916.45,961.56,898.92,880.48,936.03,944.22,970.89,943.99,965.86,945.01,956.99,915.78,938.09,926.06,936.08,998.42,905.9,938.85,929.98,948.48,985.82,960.81,918.58,897.16,956.2,911.2,915.12,945.63,894.94,967.91,931.57,925.15,950.2,950.16,920.77,953.56,936.18,956.5,938.59,925.22,973.72,908.42,945.83,984.56,926.67,951.87,941.99,926.29,934.91,954.44,1002.2,968.16,939.9,899.67,959.23,963.52,938.21,984.23,971.77,976.67,951.85,948.9,957.31,940.24,954.94,984.17,911.62,925.7,973.66,980.21,945.28,983.41,1003.5,990.09,935.92,955.74,952.65,962.53,953.22,952.96,1023.7,967.68,969.19,978.16,924.69,942.46,984.75,980.78,939.97,995.14,966.33,973.54,972.73,954.25
